# VELOCITY:     AVE_POFV:        ERROR:
   0.0874007    0.016871           0
    0.262202    0.124268           0
    0.437004    0.294302           0
    0.611805    0.526921           0
    0.786607    0.629391           0
    0.961408    0.763538           0
     1.13621    0.724234           0
     1.31101    0.692717           0
     1.48581    0.565403           0
     1.66061     0.46325           0
     1.83542    0.354503           0
     2.01022     0.23426           0
     2.18502    0.134147           0
     2.35982    0.084249           0
     2.53462   0.0527053           0
     2.70942   0.0299016           0
     2.88422   0.0144344           0
     3.05903  0.00746879           0
     3.23383  0.00288687           0
     3.40863 0.000715097           0
     3.58343  0.00121831           0
     3.75823  0.00182747           0
     3.93303 7.94552e-05           0
     4.10783 0.000132425           0
     4.28264 0.000132425           0
     4.45744 0.000185396           0
     4.63224 0.000370791           0
     4.80704 0.000662127           0
     4.98184           0           0
     5.15664           0           0
   0.0874007   0.0190428   0.0289914
    0.262202     0.12346   0.0107834
    0.437004    0.287164   0.0952826
    0.611805    0.524603   0.0309359
    0.786607    0.663623    0.456968
    0.961408    0.767127   0.0479065
     1.13621    0.758877    0.462448
     1.31101    0.712131    0.259155
     1.48581    0.556345    0.120915
     1.66061    0.454961    0.110662
     1.83542    0.340188    0.191096
     2.01022    0.215324    0.252791
     2.18502    0.128161   0.0799031
     2.35982   0.0771245   0.0951059
     2.53462   0.0424291    0.137179
     2.70942   0.0268426   0.0408354
     2.88422   0.0117064    0.036416
     3.05903  0.00699206  0.00636396
     3.23383  0.00201287   0.0116673
     3.40863 0.000357548  0.00477297
     3.58343 0.000609157  0.00813173
     3.75823 0.000913735   0.0121976
     3.93303 3.97276e-05  0.00053033
     4.10783 6.62127e-05 0.000883883
     4.28264 6.62127e-05 0.000883883
     4.45744 9.26978e-05  0.00123744
     4.63224 0.000185396  0.00247487
     4.80704 0.000331063  0.00441942
     4.98184           0           0
     5.15664           0           0
   0.0874007   0.0177362   0.0279139
    0.262202    0.121381   0.0328439
    0.437004    0.291186   0.0887538
    0.611805    0.500179    0.377037
    0.786607    0.655426    0.329809
    0.961408    0.770239   0.0576286
     1.13621    0.746747    0.360567
     1.31101    0.712245    0.172779
     1.48581    0.573508    0.276554
     1.66061    0.475654    0.327398
     1.83542    0.346946    0.164565
     2.01022    0.223004    0.205956
     2.18502    0.129503   0.0571437
     2.35982   0.0732489   0.0871147
     2.53462   0.0393215    0.103238
     2.70942   0.0236247   0.0565818
     2.88422   0.0114592   0.0245745
     3.05903  0.00587086   0.0177957
     3.23383  0.00172153  0.00898146
     3.40863 0.000238366  0.00367423
     3.58343 0.000406104  0.00625981
     3.75823 0.000609157  0.00938971
     3.93303 2.64851e-05 0.000408248
     4.10783 4.41418e-05 0.000680414
     4.28264 4.41418e-05 0.000680414
     4.45744 6.17985e-05 0.000952579
     4.63224 0.000123597  0.00190516
     4.80704 0.000220709  0.00340207
     4.98184           0           0
     5.15664           0           0
   0.0874007   0.0160698   0.0343586
    0.262202    0.118554   0.0523779
    0.437004    0.292528   0.0700877
    0.611805    0.502905    0.286268
    0.786607    0.656572    0.248064
    0.961408     0.77841    0.140403
     1.13621     0.76081    0.354961
     1.31101    0.703914    0.188009
     1.48581    0.576746    0.214064
     1.66061    0.474096    0.246867
     1.83542    0.337565    0.196856
     2.01022    0.221031      0.1578
     2.18502    0.129333   0.0429478
     2.35982   0.0735755   0.0655539
     2.53462   0.0380657   0.0801045
     2.70942   0.0215522   0.0543039
     2.88422   0.0110575    0.019566
     3.05903  0.00525067   0.0167615
     3.23383  0.00141033  0.00844167
     3.40863 0.000178774  0.00292284
     3.58343 0.000304578  0.00497965
     3.75823 0.000456867  0.00746947
     3.93303 1.98638e-05  0.00032476
     4.10783 3.31063e-05 0.000541266
     4.28264 3.31063e-05 0.000541266
     4.45744 4.63489e-05 0.000757772
     4.63224 9.26978e-05  0.00151554
     4.80704 0.000165532  0.00270633
     4.98184           0           0
     5.15664           0           0
   0.0874007   0.0152872   0.0304987
    0.262202    0.119326   0.0438834
    0.437004    0.292353   0.0561478
    0.611805    0.506628    0.237484
    0.786607    0.667307    0.268784
    0.961408    0.774286    0.132154
     1.13621     0.76304    0.286455
     1.31101    0.700784    0.159419
     1.48581    0.574562    0.175176
     1.66061    0.466513    0.235366
     1.83542    0.335725    0.160523
     2.01022    0.220494    0.126566
     2.18502    0.130497   0.0395829
     2.35982   0.0733636    0.052565
     2.53462   0.0373387   0.0652488
     2.70942   0.0228778   0.0488703
     2.88422   0.0118017   0.0200732
     3.05903  0.00559365   0.0146064
     3.23383  0.00172153  0.00855687
     3.40863   0.0003549  0.00378312
     3.58343 0.000243663  0.00411437
     3.75823 0.000365494  0.00617155
     3.93303  1.5891e-05 0.000268328
     4.10783 2.64851e-05 0.000447214
     4.28264 2.64851e-05 0.000447214
     4.45744 3.70791e-05 0.000626099
     4.63224 7.41582e-05   0.0012522
     4.80704 0.000132425  0.00223607
     4.98184           0           0
     5.15664           0           0
   0.0874007   0.0151759   0.0254877
    0.262202    0.117104   0.0529512
    0.437004    0.289742   0.0649101
    0.611805    0.505459    0.198926
    0.786607    0.667684    0.224081
    0.961408    0.778988    0.136728
     1.13621    0.768791    0.258468
     1.31101     0.70509    0.152167
     1.48581    0.577675    0.155525
     1.66061    0.466813    0.196206
     1.83542    0.332909    0.142301
     2.01022    0.213801    0.156294
     2.18502    0.127327   0.0638207
     2.35982   0.0730238   0.0441941
     2.53462   0.0384166   0.0574599
     2.70942   0.0226845   0.0408613
     2.88422   0.0115916   0.0171151
     3.05903  0.00545592   0.0124013
     3.23383  0.00178333  0.00720982
     3.40863 0.000410519  0.00329509
     3.58343 0.000286922  0.00350875
     3.75823 0.000304578  0.00524901
     3.93303 1.32425e-05 0.000228218
     4.10783 2.20709e-05 0.000380363
     4.28264 2.20709e-05 0.000380363
     4.45744 3.08993e-05 0.000532508
     4.63224 6.17985e-05  0.00106502
     4.80704 0.000110354  0.00190181
     4.98184           0           0
     5.15664           0           0
   0.0874007   0.0150057   0.0220484
    0.262202    0.115774   0.0509929
    0.437004    0.290617   0.0576992
    0.611805    0.506436    0.171361
    0.786607    0.668309    0.192379
    0.961408    0.773996    0.146106
     1.13621    0.769406    0.221805
     1.31101    0.708029    0.140181
     1.48581    0.581336    0.147871
     1.66061    0.465918    0.168902
     1.83542    0.334904     0.12686
     2.01022    0.213856     0.13397
     2.18502    0.126107   0.0587138
     2.35982   0.0727999   0.0380822
     2.53462   0.0376277   0.0511449
     2.70942   0.0213508   0.0420723
     2.88422   0.0109459   0.0185092
     3.05903  0.00524404   0.0112563
     3.23383  0.00203178  0.00755302
     3.40863 0.000351873  0.00300461
     3.58343 0.000245933  0.00309165
     3.75823 0.000261067  0.00456297
     3.93303 1.13507e-05  0.00019839
     4.10783 1.89179e-05  0.00033065
     4.28264 1.89179e-05  0.00033065
     4.45744 2.64851e-05  0.00046291
     4.63224 5.29701e-05  0.00092582
     4.80704 9.45895e-05  0.00165325
     4.98184           0           0
     5.15664           0           0
   0.0874007   0.0152157   0.0196455
    0.262202    0.116627    0.047094
    0.437004    0.292418   0.0596737
    0.611805    0.503441    0.158994
    0.786607    0.663292    0.190224
    0.961408    0.773122     0.12877
     1.13621    0.767882    0.195939
     1.31101    0.706324    0.126301
     1.48581    0.581311    0.129388
     1.66061    0.469815    0.163031
     1.83542    0.336602    0.114983
     2.01022     0.21682    0.128382
     2.18502     0.12691    0.053296
     2.35982   0.0738073   0.0377732
     2.53462   0.0383405   0.0464881
     2.70942   0.0208934   0.0376887
     2.88422   0.0103126   0.0196814
     3.05903   0.0047938   0.0126581
     3.23383   0.0019003  0.00700488
     3.40863 0.000307889  0.00274137
     3.58343 0.000215191  0.00275913
     3.75823 0.000228434  0.00403397
     3.93303  9.9319e-06  0.00017539
     4.10783 1.65532e-05 0.000292317
     4.28264 1.65532e-05 0.000292317
     4.45744 2.31744e-05 0.000409244
     4.63224 4.63489e-05 0.000818488
     4.80704 8.27658e-05  0.00146158
     4.98184           0           0
     5.15664           0           0
   0.0874007   0.0154908   0.0181364
    0.262202    0.116923    0.042191
    0.437004    0.293349   0.0555676
    0.611805    0.503478     0.14133
    0.786607    0.663613    0.169184
    0.961408    0.775645    0.122952
     1.13621    0.767152    0.174651
     1.31101    0.709809    0.128264
     1.48581    0.584452     0.12788
     1.66061    0.466346    0.157523
     1.83542    0.332544    0.125157
     2.01022    0.214629    0.120596
     2.18502    0.126758   0.0474517
     2.35982   0.0736314   0.0337218
     2.53462   0.0383622   0.0413245
     2.70942   0.0207761   0.0335661
     2.88422  0.00990247   0.0189567
     3.05903  0.00463194   0.0116146
     3.23383  0.00207172  0.00693389
     3.40863 0.000420818  0.00315881
     3.58343 0.000347249  0.00339703
     3.75823 0.000270736  0.00366395
     3.93303 8.82836e-06 0.000157135
     4.10783 1.47139e-05 0.000261891
     4.28264 1.47139e-05 0.000261891
     4.45744 2.05995e-05 0.000366648
     4.63224  4.1199e-05 0.000733296
     4.80704 7.35696e-05  0.00130946
     4.98184           0           0
     5.15664           0           0
   0.0874007   0.0158963   0.0178656
    0.262202    0.118266   0.0449554
    0.437004    0.293531   0.0501178
    0.611805    0.502533    0.128318
    0.786607    0.665469    0.155853
    0.961408    0.775274    0.110856
     1.13621    0.765675    0.159395
     1.31101    0.710404    0.115929
     1.48581    0.584348    0.115107
     1.66061    0.466222    0.141788
     1.83542    0.332552    0.112642
     2.01022    0.214887    0.108634
     2.18502    0.129989   0.0719218
     2.35982   0.0725214   0.0362811
     2.53462   0.0368858   0.0456336
     2.70942   0.0199221   0.0338607
     2.88422  0.00917178    0.021502
     3.05903  0.00427204   0.0122807
     3.23383  0.00186455  0.00726023
     3.40863 0.000378737  0.00294113
     3.58343 0.000312524  0.00311994
     3.75823 0.000243663  0.00333302
     3.93303 7.94552e-06 0.000142302
     4.10783 1.32425e-05 0.000237171
     4.28264 1.32425e-05 0.000237171
     4.45744 1.85396e-05 0.000332039
     4.63224 3.70791e-05 0.000664078
     4.80704 6.62127e-05  0.00118585
     4.98184           0           0
     5.15664           0           0
   0.0874007   0.0160861   0.0165966
    0.262202    0.117216   0.0450327
    0.437004    0.291254   0.0612896
    0.611805     0.50032    0.123268
    0.786607    0.666701     0.14341
    0.961408    0.772635    0.111413
     1.13621    0.768185    0.151782
     1.31101    0.714656    0.130254
     1.48581    0.587244    0.116906
     1.66061    0.464146    0.134205
     1.83542    0.333057    0.102804
     2.01022    0.215398   0.0991869
     2.18502    0.130032   0.0653881
     2.35982   0.0718299   0.0352533
     2.53462   0.0364748   0.0421396
     2.70942   0.0193823   0.0322796
     2.88422  0.00932275   0.0197352
     3.05903  0.00414853   0.0113835
     3.23383  0.00169504  0.00727131
     3.40863 0.000344306  0.00274464
     3.58343 0.000284113  0.00288204
     3.75823 0.000221512  0.00305614
     3.93303  7.2232e-06 0.000130018
     4.10783 1.20387e-05 0.000216696
     4.28264 1.20387e-05 0.000216696
     4.45744 1.68541e-05 0.000303374
     4.63224 3.37083e-05 0.000606749
     4.80704 6.01933e-05  0.00108348
     4.98184           0           0
     5.15664           0           0
   0.0874007   0.0158977     0.01559
    0.262202    0.117678   0.0421157
    0.437004    0.294578   0.0822575
    0.611805    0.501418    0.114724
    0.786607    0.665228    0.134131
    0.961408    0.770025    0.112496
     1.13621    0.767672    0.139442
     1.31101    0.719162    0.144533
     1.48581    0.587468     0.10724
     1.66061    0.463323    0.123917
     1.83542    0.330615    0.104059
     2.01022    0.216167   0.0919762
     2.18502    0.129795   0.0600927
     2.35982   0.0716907   0.0324134
     2.53462   0.0356511   0.0413974
     2.70942   0.0191597   0.0298617
     2.88422  0.00889457   0.0196765
     3.05903   0.0038911   0.0114252
     3.23383  0.00155379  0.00713762
     3.40863 0.000315614  0.00256882
     3.58343 0.000260437  0.00267631
     3.75823 0.000203052  0.00282126
     3.93303 6.62127e-06 0.000119678
     4.10783 1.10354e-05 0.000199464
     4.28264 1.10354e-05 0.000199464
     4.45744 1.54496e-05  0.00027925
     4.63224 3.08993e-05 0.000558499
     4.80704 5.51772e-05  0.00099732
     4.98184           0           0
     5.15664           0           0
   0.0874007   0.0159175   0.0143953
    0.262202    0.117565   0.0389295
    0.437004    0.295412   0.0774238
    0.611805    0.501654    0.105986
    0.786607    0.666344    0.125458
    0.961408    0.768925    0.105742
     1.13621    0.766507     0.13044
     1.31101    0.718825    0.133555
     1.48581    0.589973    0.108925
     1.66061    0.462908    0.114633
     1.83542    0.328653    0.102436
     2.01022    0.214175   0.0922704
     2.18502    0.130633    0.057515
     2.35982   0.0730805   0.0391235
     2.53462   0.0357487    0.038254
     2.70942   0.0189918   0.0277324
     2.88422  0.00892547   0.0181716
     3.05903  0.00389534   0.0105467
     3.23383  0.00169912   0.0070963
     3.40863 0.000395239  0.00277641
     3.58343 0.000240403  0.00249702
     3.75823 0.000187433   0.0026196
     3.93303 6.11194e-06 0.000110858
     4.10783 1.01866e-05 0.000184763
     4.28264 1.01866e-05 0.000184763
     4.45744 1.42612e-05 0.000258669
     4.63224 2.85224e-05 0.000517337
     4.80704 5.09328e-05 0.000923816
     4.98184           0           0
     5.15664           0           0
   0.0874007   0.0160329   0.0135309
    0.262202    0.118097   0.0374207
    0.437004    0.298057   0.0865086
    0.611805    0.503169    0.102203
    0.786607    0.664611    0.120689
    0.961408    0.768024   0.0995483
     1.13621    0.767144    0.121677
     1.31101    0.717081    0.128009
     1.48581    0.591183     0.10351
     1.66061    0.459932    0.119421
     1.83542    0.327872   0.0961748
     2.01022    0.214431   0.0858063
     2.18502    0.130388   0.0535919
     2.35982   0.0736909   0.0379885
     2.53462   0.0362732   0.0367806
     2.70942   0.0193644   0.0266284
     2.88422  0.00879494   0.0170399
     3.05903  0.00383844  0.00984788
     3.23383  0.00168369   0.0065954
     3.40863 0.000455922  0.00280451
     3.58343 0.000244041   0.0023196
     3.75823 0.000196746  0.00243838
     3.93303 3.97276e-05 0.000620134
     4.10783 7.56716e-05  0.00120358
     4.28264 9.45895e-06 0.000172076
     4.45744 1.32425e-05 0.000240906
     4.63224 2.64851e-05 0.000481812
     4.80704 4.72948e-05 0.000860379
     4.98184           0           0
     5.15664           0           0
   0.0874007   0.0158875   0.0129043
    0.262202    0.118494   0.0356697
    0.437004     0.29763   0.0811159
    0.611805    0.501161    0.102178
    0.786607    0.662242    0.120646
    0.961408    0.768346   0.0930977
     1.13621    0.770583    0.129737
     1.31101    0.719428     0.12691
     1.48581    0.591325   0.0966446
     1.66061    0.457697    0.118679
     1.83542    0.328207   0.0899704
     2.01022    0.214485    0.080092
     2.18502    0.131145   0.0518913
     2.35982    0.073851   0.0355759
     2.53462   0.0360956    0.034481
     2.70942    0.018958   0.0259347
     2.88422  0.00864649   0.0161327
     3.05903  0.00388977  0.00923891
     3.23383  0.00161736  0.00627348
     3.40863 0.000476731  0.00264491
     3.58343 0.000227772   0.0021852
     3.75823  0.00018363  0.00228836
     3.93303 3.70791e-05 0.000580804
     4.10783 7.06269e-05  0.00112711
     4.28264 8.82836e-06 0.000161015
     4.45744 1.23597e-05 0.000225421
     4.63224 2.47194e-05 0.000450843
     4.80704 4.41418e-05 0.000805076
     4.98184           0           0
     5.15664           0           0
   0.0874007   0.0160135   0.0123152
    0.262202    0.119961   0.0428595
    0.437004    0.300174   0.0891289
    0.611805    0.503792    0.107189
    0.786607    0.661067    0.115124
    0.961408    0.767041   0.0904815
     1.13621    0.771136    0.122048
     1.31101    0.717375    0.124759
     1.48581    0.589228   0.0983778
     1.66061    0.457141    0.111726
     1.83542    0.325852   0.0946893
     2.01022    0.214792   0.0752961
     2.18502    0.131533   0.0491621
     2.35982   0.0744909   0.0353442
     2.53462   0.0364799   0.0330802
     2.70942   0.0195212    0.026403
     2.88422  0.00848847   0.0153978
     3.05903  0.00389165  0.00866155
     3.23383  0.00163049  0.00588629
     3.40863 0.000595914  0.00330069
     3.58343 0.000213536  0.00206509
     3.75823 0.000172153  0.00215557
     3.93303 3.47617e-05 0.000546149
     4.10783 6.62127e-05  0.00105974
     4.28264 8.27658e-06 0.000151288
     4.45744 1.15872e-05 0.000211804
     4.63224 2.31744e-05 0.000423608
     4.80704 4.13829e-05 0.000756442
     4.98184           0           0
     5.15664           0           0
   0.0874007   0.0161559   0.0118804
    0.262202    0.120892   0.0437946
    0.437004    0.300051    0.083916
    0.611805    0.504003    0.100957
    0.786607     0.66302    0.114098
    0.961408    0.768276    0.088112
     1.13621    0.770856    0.114983
     1.31101    0.715343    0.123174
     1.48581    0.587676    0.096859
     1.66061     0.45661    0.105601
     1.83542    0.325961   0.0891416
     2.01022    0.214624   0.0709338
     2.18502    0.130596   0.0493489
     2.35982   0.0749496   0.0343097
     2.53462    0.037157   0.0335133
     2.70942   0.0192282   0.0254227
     2.88422  0.00864504    0.014773
     3.05903  0.00394472  0.00820978
     3.23383   0.0016078   0.0055556
     3.40863 0.000641874  0.00321855
     3.58343 0.000200975  0.00195718
     3.75823 0.000162026  0.00203723
     3.93303 3.27169e-05 0.000515385
     4.10783 6.23178e-05 0.000999949
     4.28264 7.78973e-06 0.000142668
     4.45744 1.09056e-05 0.000199735
     4.63224 2.18112e-05  0.00039947
     4.80704 3.89486e-05  0.00071334
     4.98184           0           0
     5.15664           0           0
   0.0874007   0.0160323   0.0114472
    0.262202    0.121878   0.0451483
    0.437004    0.300916   0.0808277
    0.611805    0.507542    0.115358
    0.786607    0.664374    0.110586
    0.961408    0.766884   0.0870463
     1.13621    0.768263    0.118558
     1.31101    0.713174    0.122951
     1.48581     0.58864   0.0931714
     1.66061    0.456372   0.0998303
     1.83542    0.325019   0.0859457
     2.01022    0.213512   0.0700294
     2.18502    0.130486   0.0466512
     2.35982   0.0751705    0.032656
     2.53462      0.0376   0.0326782
     2.70942   0.0193267   0.0240783
     2.88422  0.00862678   0.0139563
     3.05903  0.00394922  0.00775412
     3.23383  0.00170829  0.00556142
     3.40863  0.00066507  0.00306939
     3.58343 0.000210409  0.00185653
     3.75823 0.000180981  0.00195523
     3.93303 6.03271e-05 0.000702515
     4.10783 0.000110354  0.00129174
     4.28264 7.35696e-06 0.000134976
     4.45744 1.02998e-05 0.000188966
     4.63224 2.05995e-05 0.000377932
     4.80704 3.67848e-05 0.000674879
     4.98184           0           0
